Vernier Format 2
1_500g.cmbl 11/20/17 4:09 PM .
Latest
Time	Angle	Velocity	Acceleration
t	Angle	v	a
s	rad	rad/s	rad/s²

0	0	4.65421133865	3.42278458863
0.05	0.226892802759	4.81419985342	3.51005105123
0.1	0.471238898038	5.02654824574	3.21431470576
0.15	0.733038285838	5.17781011425	2.2888592567
0.2	0.994837673637	5.23598775598	1.76849257231
0.25	1.25663706144	5.29416539772	2.33033776053
0.3	1.51843644924	5.44930577567	3.28057257551
0.35	1.79768912955	5.6820163426	3.22670438872
0.4	2.09439510239	5.78867535245	2.768824801
0.45	2.37364778271	5.93411945678	2.65031479007
0.5	2.68780704807	6.06986728749	2.332492488
0.55	2.98451302091	6.14743747647	2.41868158687
0.6	3.29867228627	6.2928815808	2.78498525704
0.65	3.61283155163	6.44802195876	2.78498525704
0.7	3.94444410951	6.59346606309	2.41329476819
0.75	4.27605666739	6.67103625207	2.29478475725
0.8	4.60766922527	6.80678408278	2.46716295498
0.85	4.95673507566	6.94253191349	2.30017157593
0.9	5.30580092606	7.02010210247	2.44561568026
0.95	5.65486677646	7.1655462068	2.93581618005
1	6.02138591938	7.33038285838	3.11358119646
1.05	6.3879050623	7.49521950995	2.93581618005
1.1	6.77187749774	7.64066361429	2.44561568026
1.15	7.15584993318	7.71823380326	2.30017157593
1.2	7.53982236862	7.85398163397	2.46716295498
1.25	7.94124809657	7.98972946469	2.30017157593
1.3	8.34267382453	8.06729965366	2.44561568026
1.35	8.74409955249	8.212743758	2.93042936137
1.4	9.16297857297	8.37758040957	3.07587346571
1.45	9.58185759345	8.54241706115	2.75266434497
1.5	10.0181899064	8.67816489186	1.97157563651
1.55	10.4545222194	8.72664625997	1.4867619554
1.6	10.8908545324	8.77512762808	1.97157563651
1.65	11.3271868454	8.91087545879	2.74727752629
1.7	11.780972451	9.07571211037	3.03816573495
1.75	12.2347580565	9.24054876195	2.75266434497
1.8	12.7059969545	9.37629659266	2.00389654859
1.85	13.1772358526	9.42477796077	1.63220605974
1.9	13.6484747506	9.4829556025	2.26785066386
1.95	14.1197136486	9.63809598046	3.12435483382
2	14.6084058392	9.86111027377	2.8981084493
2.05	15.1145513223	9.94837673637	2.24091657046
2.1	15.6032435128	10.0259469253	2.4617761363
2.15	16.1093889959	10.2198723978	2.31633203197
2.2	16.6329877715	10.2877463131	1.77226334539
2.25	17.1391332546	10.3459239549	2.08469882877
2.3	17.6627320302	10.4816717856	2.63415433403
2.35	18.1863308058	10.6368121635	2.75266434497
2.4	18.7273828739	10.7822562679	2.40252113083
2.45	19.268434942	10.8598264569	2.2570770265
2.5	19.8094870101	10.9955742876	2.27862430121
2.55	20.3679923708	11.1216258447	1.78842380143
2.6	20.9264977314	11.1701072128	1.44905422465
2.65	21.4850030921	11.2185885809	1.96618881783
2.7	22.0435084527	11.3543364116	2.74727752629
2.75	22.6194671058	11.5191730632	3.03816573495
2.8	23.195425759	11.6840097147	2.74727752629
2.85	23.7888377047	11.8197575455	1.97157563651
2.9	24.3822496504	11.8682389136	1.48137513672
2.95	24.975661596	11.9167202817	1.93386790576
3	25.5690735417	12.0524681124	2.56951250988
3.05	26.1799387799	12.2076084903	2.59644660328
3.1	26.7908040181	12.343356321	2.07931201009
3.15	27.4191225488	12.4015339628	1.76687652671
3.2	28.029987787	12.4694078781	2.27862430121
3.25	28.6583063177	12.6633333506	2.27862430121
3.3	29.304078141	12.7312072659	1.76687652671
3.35	29.9323966717	12.7893849077	2.07931201009
3.4	30.5781684949	12.9251327384	2.59644660328
3.45	31.2239403182	13.0802731163	2.56951250988
3.5	31.8871654339	13.216020947	1.93386790576
3.55	32.5503905497	13.2645023152	1.47598831804
3.6	33.2136156655	13.3129836833	1.93386790576
3.65	33.8768407812	13.448731514	2.56951250988
3.7	34.5575191895	13.6038718919	2.59644660328
3.75	35.2381975978	13.7396197226	2.08469882877
3.8	35.9363292986	13.7977973644	1.80458425746
3.85	36.6170077068	13.8656712797	2.4617761363
3.9	37.3151394076	14.0692930258	2.74727752629
3.95	38.030724401	14.166255762	2.54257841649
4	38.7288561018	14.3116998664	2.39174749347
4.05	39.4618943876	14.4377514234	1.66991379049
4.1	40.1774793809	14.4765365179	1.12584510391
4.15	40.9105176667	14.5056253388	1.43828058729
4.2	41.6261026601	14.5734992542	2.5641256912
4.25	42.3591409459	14.7965135475	3.05432619099
4.3	43.1096325243	14.9516539254	2.25169020782
4.35	43.8601241026	15.0098315672	1.59449832898
4.4	44.610615681	15.0583129353	1.8207447135
4.45	45.3611072593	15.1843644924	2.27862430121
4.5	46.1290521302	15.3201123231	2.21936929575
4.55	46.8969970011	15.397682512	2.21936929575
4.6	47.664941872	15.5334303427	2.27862430121
4.65	48.4503400354	15.6594818998	1.8207447135
4.7	49.2357381988	15.7079632679	1.59449832898
4.75	50.0211363622	15.7661409097	2.2570770265
4.8	50.8065345256	15.9212812876	3.08664710306
4.85	51.6093859815	16.1442955809	2.71495661421
4.9	52.4296907299	16.2218657699	1.76687652671
4.95	53.2325421858	16.270347138	1.64836651577
5	54.0528469343	16.3770061479	1.82613153218
5.05	54.8731516827	16.4448800632	2.26246384518
5.1	55.6934564311	16.5903241676	2.89272163062
5.15	56.5312144721	16.7551608191	3.07048664703
5.2	57.3689725131	16.9199974707	2.75266434497
5.25	58.2241838465	17.0557453014	1.96618881783
5.3	59.07939518	17.1042266695	1.44905422465
5.35	59.9346065135	17.1527080377	1.78842380143
5.4	60.789817847	17.2787595947	2.27862430121
5.45	61.662482473	17.4145074255	2.26246384518
5.5	62.535147099	17.4920776144	2.44022886159
5.55	63.407811725	17.6375217188	2.93042936137
5.6	64.2979296435	17.8023583703	3.07587346571
5.65	65.188047562	17.9671950219	2.75266434497
5.7	66.095618773	18.1029428526	1.96618881783
5.75	67.0031899841	18.1514242207	1.44905422465
5.8	67.9107611951	18.1999055889	1.78842380143
5.85	68.8183324061	18.3259571459	2.27323748254
5.9	69.7433569097	18.4617049767	2.21936929575
5.95	70.6683814133	18.5392751656	2.21936929575
6	71.5934059168	18.6750229963	2.27323748254
6.05	72.5358837129	18.8010745534	1.78842380143
6.1	73.478361509	18.8495559215	1.44905422465
6.15	74.420839305	18.8980372896	1.96618881783
6.2	75.3633171011	19.0337851204	2.74727752629
6.25	76.3232481897	19.1986217719	3.03277891627
6.3	77.2831792783	19.3634584235	2.70956979553
6.35	78.2605636594	19.4992062542	1.78842380143
6.4	79.2379480405	19.5379913487	1.00733509297
6.45	80.2153324217	19.557383896	1.12045828523
6.5	81.1927168028	19.6058652641	2.07392519141
6.55	82.1701011839	19.761005642	3.04893937231
6.6	83.1649388575	19.9840199353	2.70956979553
6.65	84.1772298237	20.0615901243	1.76148970803
6.7	85.1720674973	20.1100714924	1.61065878502
6.75	86.1843584635	20.2167305023	1.63759287841
6.8	87.1966494296	20.274908144	1.74532925199
6.85	88.2089403958	20.3912634275	1.85845244425
6.9	89.2386846545	20.4591373428	1.91770744972
6.95	90.2509756206	20.5851888999	1.91770744972
7	91.2981731718	20.6918479098	1.29283648296
7.05	92.3279174305	20.6724553625	1.44366740597
7.1	93.3576616892	20.788810646	2.41868158687
7.15	94.4048592404	20.9439510239	2.88194799326
7.2	95.4520567916	21.1087876755	2.67724888346
7.25	96.5167076353	21.2445355062	1.77765016407
7.3	97.581358479	21.2833206007	0.969627362219
7.35	98.6460093227	21.302713148	0.937306450145
7.4	99.7106601664	21.3414982424	1.59449832898
7.45	100.77531101	21.4675497995	2.19782202103
7.5	101.857415146	21.6032976302	2.03621746066
7.55	102.939519283	21.6711715456	1.77765016407
7.6	104.021623419	21.7778305554	1.60527196634
7.65	105.121180848	21.8263119236	1.58372469162
7.7	106.203284984	21.8941858389	2.24091657046
7.75	107.302842413	22.0881113114	2.26785066386
7.8	108.419853134	22.1559852267	1.72916879596
7.85	109.519410563	22.2141628684	1.89616017501
7.9	110.636421284	22.3402144255	2.12240655952
7.95	111.753432005	22.4662659826	1.75071607067
8	112.887896019	22.5147473507	1.40057285654
8.05	114.00490674	22.5632287188	1.75071607067
8.1	115.139370754	22.6892802759	2.12240655952
8.15	116.273834768	22.815331833	1.896160175
8.2	117.425752074	22.8735094747	1.72916879596
8.25	118.560216088	22.9413833901	2.26785066386
8.3	119.712133394	23.1353088625	2.24091657046
8.35	120.881503993	23.2031827779	1.58372469162
8.4	122.033421299	23.251664146	1.60527196634
8.45	123.202791898	23.3583231559	1.77765016407
8.5	124.372162497	23.4261970712	2.03621746066
8.55	125.541533096	23.5619449019	2.19782202103
8.6	126.728356987	23.687996459	1.59449832898
8.65	127.915180879	23.7267815535	0.937306450145
8.7	129.10200477	23.7461741007	0.969627362219
8.75	130.288828661	23.7849591952	1.77765016407
8.8	131.475652553	23.9207070259	2.67186206478
8.85	132.679929737	24.0855436775	2.84962708119
8.9	133.88420692	24.2406840555	2.26785066386
8.95	135.105937397	24.3473430653	1.11507146655
9	136.327667873	24.3085579708	0.770315071096
9.05	137.531945057	24.3473430653	1.76148970803
9.1	138.753675534	24.5315722641	2.0523779167
9.15	139.992859302	24.5994461795	1.54063014219
9.2	141.214589779	24.6479275476	1.56217741691
9.25	142.453773548	24.7545865575	1.59449832898
9.3	143.692957317	24.8127641992	1.56756423559
9.35	144.932141086	24.919423209	1.41673331258
9.4	146.188778147	24.9582083035	1.24974193353
9.45	147.427961916	25.0066896716	1.71300833992
9.5	148.684598977	25.1327412287	2.07931201009
9.55	149.941236039	25.2587927858	1.71300833992
9.6	151.215326393	25.3072741539	1.25512875221
9.65	152.471963454	25.3460592484	1.45444104333
9.7	153.746053808	25.4527182583	1.74532925199
9.75	155.020144162	25.5205921736	2.02975327825
9.8	156.294234516	25.6563400043	2.18920311115
9.85	157.585778163	25.7823915614	1.54170750593
9.9	158.877321809	25.8192374012	0.740148886506
9.95	160.168865456	25.8308729295	0.311358119663
10	161.460409102	25.8308729295	0.092653281298
