Vernier Format 2
Untitled.cmbl 10/2/17 4:41 PM .
Latest
Time	Position	Velocity	Acceleration
t	x	v	acc
s	m	m/s	m/s²

0	0.6597605	0.26411	-1.67559734568
0.05	0.675367	0.191794166667	-1.98179895062
0.1	0.6837705	0.0831203333333	-2.35091564815
0.15	0.684971	-0.0501161111111	-2.57777203704
0.2	0.6786255	-0.190174444444	-2.48242015432
0.25	0.6652485	-0.312225277778	-2.04743475309
0.3	0.646212	-0.404168333333	-1.36967098765
0.35	0.623231	-0.455713611111	-0.528474074074
0.4	0.5987065	-0.459524722222	0.373224228395
0.45	0.5753825	-0.416078055556	1.22289027778
0.5	0.5554885	-0.331661944444	1.93514459877
0.55	0.540911	-0.214660833333	2.4483212963
0.6	0.5331935	-0.0768891666667	2.71531080247
0.65	0.533022	0.066885	2.72632067901
0.7	0.5400535	0.205609444444	2.48182731481
0.75	0.554288	0.325754722222	1.97516126543
0.8	0.5740105	0.411981111111	1.25195
0.85	0.597163	0.45619	0.396249691358
0.9	0.621516	0.453141111111	-0.497932253086
0.95	0.6443255	0.4038825	-1.32965432099
1	0.6635335	0.314035555556	-2.01131388889
1.05	0.6769105	0.194080833333	-2.47939243827
1.1	0.683599	0.0568808333333	-2.71007052469
1.15	0.682913	-0.0871791666667	-2.68064027778
1.2	0.6745095	-0.222187777778	-2.3796683642
1.25	0.6597605	-0.334234444444	-1.84658919753
1.3	0.6398665	-0.414553611111	-1.12242515432
1.35	0.6165425	-0.451521388889	-0.276940740741
1.4	0.5928755	-0.442660555556	0.584687962963
1.45	0.5705805	-0.390543611111	1.38417438272
1.5	0.55223	-0.298791111111	2.04439645062
1.55	0.539539	-0.177883611111	2.49887145062
1.6	0.533708	-0.0387780555556	2.70234243827
1.65	0.5355945	0.102804722222	2.64173518519
1.7	0.544341	0.235145555556	2.32964753086
1.75	0.5599475	0.345667777778	1.77259012346
1.8	0.580356	0.420365555556	1.0204779321
1.85	0.60368	0.452283611111	0.156996604938
1.9	0.6275185	0.4364675	-0.715324382716
1.95	0.6491275	0.376156666667	-1.48405725309
2	0.666449	0.281355277778	-2.09007685185
2.05	0.6782825	0.160257222222	-2.51004012346
2.1	0.683256	0.0211516666667	-2.69482608025
2.15	0.680512	-0.120812222222	-2.59907191358
2.2	0.670565	-0.248865555556	-2.24490324074
2.25	0.654787	-0.354242777778	-1.66317947531
2.3	0.6336925	-0.423319166667	-0.890741358025
2.35	0.61054	-0.446281111111	-0.0396990740741
2.4	0.5873875	-0.426082222222	0.791652469136
2.45	0.566293	-0.364151666667	1.54307654321
2.5	0.549486	-0.265729722222	2.14062700617
2.55	0.5386815	-0.141201666667	2.5211029321
2.6	0.5349085	-0.00419222222222	2.66158472222
2.65	0.538167	0.1346275	2.5511154321
2.7	0.5488	0.261728055556	2.1739742284
2.75	0.5654355	0.361865	1.55763287037
2.8	0.58653	0.423795555556	0.781701234568
2.85	0.609511	0.442851111111	-0.0655828703704
2.9	0.6326635	0.416268611111	-0.891694135802
2.95	0.652729	0.349193055556	-1.61125308642
3	0.66885	0.249437222222	-2.18048487654
3.05	0.678797	0.122813055556	-2.53904691358
3.1	0.681541	-0.0148633333333	-2.64067654321
3.15	0.6772535	-0.151205833333	-2.48622067901
3.2	0.6659345	-0.274114166667	-2.06959212963
3.25	0.648613	-0.367200555556	-1.43313657407
3.3	0.62769	-0.422461666667	-0.664827160494
3.35	0.604709	-0.435705277778	0.15821404321
3.4	0.582414	-0.405883333333	0.960558796296
3.45	0.56252	-0.336044722222	1.66995478395
3.5	0.547428	-0.232001388889	2.21081496914
3.55	0.53851	-0.106520555556	2.53851759259
3.6	0.5362805	0.0309652777778	2.6282375
3.65	0.541597	0.167498333333	2.44170478395
3.7	0.5537735	0.286119166667	1.98754737654
3.75	0.571438	0.374251111111	1.33113641975
3.8	0.592704	0.424367222222	0.546576851852
3.85	0.615685	0.430083888889	-0.272970833333
3.9	0.637294	0.395021666667	-1.04731450617
3.95	0.6566735	0.322134166667	-1.73252052469
4	0.670908	0.2152325	-2.25289598765
4.05	0.6789685	0.0880366666667	-2.55233287037
4.1	0.680169	-0.0499255555556	-2.5982779321
4.15	0.6738235	-0.183409722222	-2.36082453704
4.2	0.660961	-0.296123333333	-1.87490787037
4.25	0.6429535	-0.377681111111	-1.21368009259
4.3	0.6216875	-0.421318333333	-0.450452160494
4.35	0.599221	-0.424176666667	0.349034259259
4.4	0.577612	-0.385493888889	1.12099598765
4.45	0.55909	-0.307651944444	1.78455277778
4.5	0.545713	-0.200369166667	2.27920324074
4.55	0.538167	-0.0714583333333	2.55921404321
4.6	0.538167	0.0665991666667	2.5681066358
4.65	0.5451985	0.1963675	2.30397546296
4.7	0.5585755	0.306318055556	1.80419058642
4.75	0.5770975	0.384445833333	1.11792592593
4.8	0.5987065	0.421604166667	0.338606635802
4.85	0.62083	0.418364722222	-0.45145787037
4.9	0.642096	0.375299166667	-1.20563441358
4.95	0.659932	0.293646111111	-1.85066496914
5	0.672623	0.182838055556	-2.31292098765
5.05	0.6789685	0.0530697222222	-2.54344027778
5.1	0.678111	-0.0815577777778	-2.51845632716
5.15	0.670565	-0.209134722222	-2.2338933642
5.2	0.6563305	-0.314988333333	-1.7065308642
5.25	0.637637	-0.386256111111	-1.01529058642
5.3	0.6161995	-0.4193175	-0.246028395062
5.35	0.594076	-0.411314166667	0.536678549383
5.4	0.573496	-0.36358	1.26804135802
5.45	0.556346	-0.280688333333	1.89560432099
5.5	0.5441695	-0.167307777778	2.34865015432
5.55	0.538853	-0.0354433333333	2.54920987654
5.6	0.540568	0.0987077777778	2.47568719136
5.65	0.549143	0.222187777778	2.1481433642
5.7	0.5637205	0.322229444444	1.60474243827
5.75	0.582757	0.388256944444	0.91667808642
5.8	0.604023	0.416554444444	0.155143981481
5.85	0.625975	0.404930555556	-0.630050771605
5.9	0.646212	0.351575	-1.36284274691
5.95	0.6625045	0.263347777778	-1.96303981481
6	0.673652	0.147680555556	-2.36934660494
6.05	0.6779395	0.0160066666667	-2.52009722222
6.1	0.6751955	-0.115095555556	-2.40481111111
6.15	0.6659345	-0.233811666667	-2.05233626543
6.2	0.6508425	-0.328136666667	-1.50279521605
6.25	0.631806	-0.389495555556	-0.816477623457
6.3	0.6103685	-0.412648055556	-0.0562138888889
6.35	0.588931	-0.395212222222	0.709343055556
6.4	0.56938	-0.339951111111	1.4232912037
6.45	0.5534305	-0.248103333333	2.01025524691
6.5	0.5434835	-0.129768333333	2.37744521605
6.55	0.5400535	-0.000190555555556	2.49410756173
6.6	0.5434835	0.129101388889	2.36553549383
6.65	0.5534305	0.245816666667	1.99855725309
6.7	0.569037	0.337855	1.41884490741
6.75	0.5887595	0.392925555556	0.706484722222
6.8	0.609854	0.409503888889	-0.0465273148148
6.85	0.63112	0.388542777778	-0.80049212963
6.9	0.650328	0.327755555556	-1.49411435185
6.95	0.66542	0.231810833333	-2.02280015432
7	0.6741665	0.116048333333	-2.33642283951
7.05	0.677082	-0.00552611111111	-2.50310601852
7.1	0.674681	-0.143964722222	-2.41740895062
7.15	0.66199	-0.265825	-1.94255509259
7.2	0.6460405	-0.344810277778	-1.28889660494
7.25	0.6264895	-0.394259444444	-0.597338734568
7.3	0.6052235	-0.406740833333	0.141752160494
7.35	0.5843005	-0.381301666667	0.892699845679
7.4	0.5654355	-0.315369444444	1.58256388889
7.45	0.5513725	-0.215613611111	2.0967462963
7.5	0.5431405	-0.0962305555556	2.38136219136
7.55	0.5414255	0.0316322222222	2.43069490741
7.6	0.546399	0.156350833333	2.23998055556
7.65	0.557718	0.264776944444	1.82446358025
7.7	0.5740105	0.345477222222	1.23749953704
7.75	0.5935615	0.392925555556	0.535884567901
7.8	0.6148275	0.401786388889	-0.228825462963
7.85	0.6354075	0.369487222222	-0.978238117284
7.9	0.6532435	0.300029722222	-1.63025570988
7.95	0.6666205	0.200178611111	-2.12035401235
8	0.6741665	0.0786994444444	-2.38210324074
8.05	0.674681	-0.0484963888889	-2.3882962963
8.1	0.6690215	-0.1689275	-2.16688132716
8.15	0.657188	-0.273351944444	-1.73829012346
8.2	0.6405525	-0.349669444444	-1.13973395062
8.25	0.62083	-0.391401111111	-0.435366512346
8.3	0.599907	-0.394831111111	0.31256404321
8.35	0.5798415	-0.359864166667	1.0460441358
8.4	0.5623485	-0.286595555556	1.6848287037
8.45	0.5500005	-0.183790833333	2.14025648148
8.5	0.543312	-0.0637408333333	2.37352824074
8.55	0.543312	0.0633597222222	2.36177731481
8.6	0.5500005	0.182266388889	2.10796790123
8.65	0.5623485	0.281545833333	1.66106219136
8.7	0.5791555	0.354528611111	1.05705401235
8.75	0.599221	0.392068055556	0.338447839506
8.8	0.6199725	0.389686111111	-0.414352469136
8.85	0.639695	0.349097777778	-1.12957098765
8.9	0.6563305	0.272399166667	-1.73506126543
8.95	0.6679925	0.168832222222	-2.16778117284
9	0.673995	0.0465908333333	-2.37463981481
9.05	0.6727945	-0.0793663888889	-2.32117839506
9.1	0.6655915	-0.1946525	-2.03793873457
9.15	0.6525575	-0.290311388889	-1.5693308642
9.2	0.6354075	-0.357101111111	-0.958547376543
9.25	0.6155135	-0.389876666667	-0.2529625
9.3	0.5949335	-0.384636388889	0.499731944444
9.35	0.5753825	-0.3387125	1.21622083333
9.4	0.5596045	-0.256964166667	1.79090462963
9.45	0.5488	-0.151682222222	2.17005725309
9.5	0.5438265	-0.0315369444444	2.33419969136
9.55	0.5455415	0.0911808333333	2.26517623457
9.6	0.5534305	0.202941666667	1.98908240741
9.65	0.5664645	0.297361944444	1.52492083333
9.7	0.5843005	0.362913055556	0.885501080247
9.75	0.604366	0.389686111111	0.151438734568
9.8	0.6247745	0.378062222222	-0.591304475309
9.85	0.6436395	0.328803611111	-1.28381512346
9.9	0.6590745	0.244863888889	-1.84902407407
9.95	0.669193	0.135103888889	-2.2035632716
10	0.672966	0.0145775	-2.31784367284
10.05	0.670565	-0.104805555556	-2.21859598765
10.1	0.6621615	-0.214946666667	-1.91958256173
10.15	0.64827	-0.304698333333	-1.42673179012
10.2	0.630434	-0.363484722222	-0.787100308642
10.25	0.61054	-0.386923055556	-0.0600779320988
10.3	0.5901315	-0.370344722222	0.683670987654
10.35	0.5719525	-0.315369444444	1.35082716049
10.4	0.557375	-0.229333611111	1.87220833333
10.45	0.548114	-0.120526388889	2.20044027778
10.5	0.5448555	-0.000285833333333	2.30360493827
10.55	0.548114	0.119287777778	2.17408009259
10.6	0.557375	0.225046111111	1.84161358025
10.65	0.571438	0.309652777778	1.34452824074
10.7	0.5894455	0.365485555556	0.702091358025
10.75	0.609511	0.383778888889	-0.0320768518519
10.8	0.629405	0.362436666667	-0.770267901235
10.85	0.647241	0.303745555556	-1.42953719136
10.9	0.6611325	0.212469444444	-1.91979429012
10.95	0.669193	0.102518888889	-2.18995972222
11	0.671594	-0.0141963888889	-2.25834799383
11.05	0.667821	-0.130911666667	-2.12585895062
11.1	0.6580455	-0.235526666667	-1.78010648148
11.15	0.6432965	-0.3164175	-1.25052083333
11.2	0.6251175	-0.365295	-0.597444598765
11.25	0.605395	-0.378824444444	0.121637962963
11.3	0.5856725	-0.353480555556	0.842149691358
11.35	0.5685225	-0.290787777778	1.47003024691
11.4	0.5554885	-0.1997975	1.93562098765
11.45	0.547771	-0.0893705555556	2.203775
11.5	0.5462275	0.0292502777778	2.25464274691
11.55	0.550858	0.144345833333	2.09346450617
11.6	0.561148	0.246483611111	1.73024444444
11.65	0.5764115	0.325278333333	1.17668055556
11.7	0.595105	0.369391944444	0.494121141975
11.75	0.6148275	0.376251944444	-0.233642283951
11.8	0.634207	0.345381944444	-0.941185648148
11.85	0.6508425	0.278306388889	-1.54889907407
11.9	0.6631905	0.182933333333	-1.9765375
11.95	0.6697075	0.07203	-2.19382376543
12	0.670565	-0.0439230555556	-2.21356743827
12.05	0.6652485	-0.157113055556	-2.03190447531
12.1	0.6542725	-0.255535	-1.64354166667
12.15	0.638666	-0.3284225	-1.08214382716
12.2	0.620144	-0.368629722222	-0.400907716049
12.25	0.60025	-0.37044	0.326061728395
12.3	0.5815565	-0.333948611111	1.00666265432
12.35	0.565607	-0.265348611111	1.57748240741
12.4	0.553945	-0.169975555556	1.98850015432
12.45	0.5479425	-0.0582147222222	2.19445895062
12.5	0.5479425	0.0584052777778	2.18059074074
12.55	0.5541165	0.167593611111	1.96595108025
12.6	0.565264	0.261823333333	1.57165987654
12.65	0.5812135	0.332043055556	1.00258688272
12.7	0.599907	0.367200555556	0.312352314815
12.75	0.619458	0.364342222222	-0.408053549383
12.8	0.6378085	0.324420833333	-1.07955015432
12.85	0.6532435	0.251342777778	-1.62707978395
12.9	0.6638765	0.154445277778	-1.99749861111
12.95	0.669193	0.0441136111111	-2.17614444444
13	0.668507	-0.0710772222222	-2.1522191358
13.05	0.6618185	-0.179598611111	-1.91698888889
13.1	0.6498135	-0.2701125	-1.49321450617
13.15	0.633864	-0.335568333333	-0.906091666667
13.2	0.6148275	-0.365771388889	-0.204582561728
13.25	0.5956195	-0.3558625	0.500843518519
13.3	0.577955	-0.312320555556	1.1317412037
13.35	0.563206	-0.238575555556	1.65158734568
13.4	0.5530875	-0.14063	2.00686759259
13.45	0.5486285	-0.0294408333333	2.15872978395
13.5	0.550172	0.0826058333333	2.11680756173
13.55	0.557032	0.1895075	1.88125972222
13.6	0.569723	0.280021388889	1.42673179012
13.65	0.5863585	0.339188888889	0.804409104938
13.7	0.605052	0.363008333333	0.110098765432
13.75	0.6240885	0.350336388889	-0.586593518519
13.8	0.6415815	0.301173055556	-1.20595200617
13.85	0.6553015	0.223902777778	-1.68662839506
13.9	0.664734	0.126528888889	-2.01184320988
13.95	0.668507	0.0158161111111	-2.15581851852
14	0.666449	-0.0975644444444	-2.0882242284
14.05	0.6583885	-0.201988888889	-1.80127932099
14.1	0.6453545	-0.284785277778	-1.33219506173
14.15	0.6288905	-0.340713333333	-0.724640432099
14.2	0.609854	-0.361198055556	-0.0279481481481
14.25	0.5911605	-0.342714166667	0.655511111111
14.3	0.5743535	-0.292026388889	1.25443780864
14.35	0.560805	-0.212564722222	1.73035030864
14.4	0.55223	-0.111856111111	2.03132222222
14.45	0.5493145	-0.00209611111111	2.14427932099
14.5	0.551887	0.110045833333	2.06032901235
14.55	0.5606335	0.213231666667	1.75178780864
14.6	0.574182	0.293169722222	1.25052083333
14.65	0.5911605	0.343	0.625657407407
14.7	0.609854	0.357958611111	-0.0569020061728
14.75	0.628376	0.337188055556	-0.732050925926
14.8	0.6450115	0.28126	-1.32250848765
14.85	0.657531	0.198844722222	-1.76676759259
14.9	0.6655915	0.0982313888889	-2.04587854938
14.95	0.667821	-0.0132436111111	-2.13289891975
15	0.6642195	-0.123670555556	-2.00612654321
15.05	0.6549585	-0.221806666667	-1.67736527778
15.1	0.6412385	-0.298886388889	-1.1660941358
15.15	0.6237455	-0.343762222222	-0.526833179012
15.2	0.605395	-0.352527777778	0.145616203704
15.25	0.587216	-0.328041388889	0.792128858025
15.3	0.5712665	-0.270493611111	1.36199583333
15.35	0.55909	-0.186363333333	1.79503333333
15.4	0.551887	-0.0835586111111	2.04677839506
15.45	0.550515	0.0258202777778	2.10553302469
15.5	0.5544595	0.134532222222	1.96743317901
15.55	0.5644065	0.231429722222	1.61432314815
15.6	0.578641	0.303269166667	1.08256728395
15.65	0.5959625	0.344048055556	0.439971604938
15.7	0.6144845	0.348907222222	-0.241846759259
15.75	0.6323205	0.317751388889	-0.877031944444
15.8	0.6474125	0.256773611111	-1.40757037037
15.85	0.658903	0.172262222222	-1.81133641975
15.9	0.66542	0.0691716666667	-2.04794290123
15.95	0.666106	-0.0409694444444	-2.07822006173
16	0.6611325	-0.146918333333	-1.90095046296
16.05	0.6508425	-0.238385	-1.53466033951
16.1	0.6364365	-0.307270833333	-1.00105185185
16.15	0.618772	-0.343381111111	-0.353057098765
16.2	0.600593	-0.342809444444	0.310340895062
16.25	0.5832715	-0.310224444444	0.926311728395
16.3	0.568351	-0.247055277778	1.45737947531
16.35	0.5575465	-0.158828055556	1.84690679012
16.4	0.551887	-0.0553563888889	2.05932330247
16.45	0.5517155	0.0549752777778	2.0707037037
16.5	0.5575465	0.160733611111	1.86156898148
16.55	0.5685225	0.248960833333	1.4578558642
16.6	0.583443	0.312034722222	0.91022037037
16.65	0.600936	0.343952777778	0.26624845679
16.7	0.6192865	0.340141666667	-0.408106481481
16.75	0.6364365	0.300220277778	-1.01836064815
16.8	0.650328	0.23324	-1.50872361111
16.85	0.660618	0.144345833333	-1.86448024691
16.9	0.66542	0.0399213888889	-2.04587854938
16.95	0.664734	-0.0682188888889	-2.02756404321
17	0.6583885	-0.170737777778	-1.80657253086
17.05	0.6470695	-0.257345277778	-1.38179243827
17.1	0.631463	-0.315369444444	-0.803350462963
17.15	0.6141415	-0.339474722222	-0.168588734568
17.2	0.5963055	-0.3318525	0.463155864198
17.25	0.57967	-0.291740555556	1.05202546296
17.3	0.56595	-0.222664166667	1.5393712963
17.35	0.5565175	-0.131388055556	1.87189074074
17.4	0.5524015	-0.0286786111111	2.02994598765
17.45	0.5534305	0.0786994444444	2.00157438272
17.5	0.560462	0.180360833333	1.75729274691
17.55	0.5722955	0.262299722222	1.31965015432
17.6	0.5877305	0.317751388889	0.744489969136
17.65	0.605395	0.340046388889	0.091625462963
17.7	0.623231	0.326135833333	-0.548588271605
17.75	0.6391805	0.281736388889	-1.11210339506
17.8	0.652386	0.211516666667	-1.57981141975
17.85	0.661304	0.118335	-1.90433811728
17.9	0.664734	0.0126719444444	-2.0277757716
17.95	0.6625045	-0.09261	-1.94731898148
18	0.65513	-0.189031111111	-1.68276435185
18.05	0.6429535	-0.268111666667	-1.23993441358
18.1	0.6271755	-0.31899	-0.655934567901
18.15	0.6096825	-0.33614	-0.00989830246914
18.2	0.5921895	-0.31899	0.618088117284
18.25	0.576583	-0.271160555556	1.16974645062
18.3	0.5640635	-0.197701388889	1.60977098765
18.35	0.556003	-0.104233888889	1.89904490741
18.4	0.553259	-0.000762222222222	2.00903780864
18.45	0.5558315	0.104424444444	1.92185864198
18.5	0.5640635	0.200083333333	1.62448611111
18.55	0.5767545	0.273828333333	1.15376095679
18.6	0.5925325	0.3198475	0.569602314815
18.65	0.6100255	0.333376944444	-0.0737344135802
18.7	0.627347	0.3112725	-0.691716666667
18.75	0.6422675	0.260203611111	-1.21907916667
18.8	0.6542725	0.185410555556	-1.63930709877
18.85	0.661647	0.0906091666667	-1.91143101852
18.9	0.663705	-0.0134341666667	-1.9938462963
18.95	0.660275	-0.116905833333	-1.8737433642
19	0.6515285	-0.2083725	-1.56144398148
19.05	0.638666	-0.279735555556	-1.08357299383
19.1	0.6223735	-0.321848333333	-0.484540432099
19.15	0.605052	-0.32928	0.148104012346
19.2	0.588245	-0.305460555556	0.74729537037
19.25	0.5733245	-0.251914444444	1.27524012346
19.3	0.5620055	-0.172738611111	1.67561851852
19.35	0.5554885	-0.0782230555556	1.92021774691
19.4	0.5537735	0.0259155555556	1.98966466049
19.45	0.558061	0.1294825	1.84595401235
19.5	0.567322	0.218853055556	1.49935462963
19.55	0.5808705	0.285356944444	0.999622685185
19.6	0.5969915	0.322801111111	0.400113734568
19.65	0.6144845	0.327088611111	-0.237400462963
19.7	0.63112	0.296885555556	-0.828069753086
19.75	0.645183	0.240004722222	-1.31848564815
19.8	0.6559875	0.160828888889	-1.69425061728
19.85	0.66199	0.0645030555556	-1.91476574074
19.9	0.662676	-0.0382063888889	-1.94795416667
19.95	0.6580455	-0.137771666667	-1.79005771605
20	0.6484415	-0.225046111111	-1.43948842593
20.05	0.63455	-0.288215277778	-0.930334567901
20.1	0.618429	-0.3215625	-0.331302006173
20.15	0.6011075	-0.322515277778	0.296472685185
20.2	0.584815	-0.289930277778	0.878884567901
20.25	0.571095	-0.230762777778	1.36612453704
20.3	0.560805	-0.148442777778	1.72680385802
20.35	0.55566	-0.0513547222222	1.91910617284
20.4	0.5554885	0.0505925	1.92905740741
20.45	0.560805	0.149490833333	1.7406720679
20.5	0.571095	0.2323825	1.36252515432
20.55	0.5849865	0.291454722222	0.841726234568
20.6	0.6014505	0.320228611111	0.233165895062
20.65	0.618429	0.314607222222	-0.377617592593
20.7	0.6340355	0.279735555556	-0.928429012346
20.75	0.6474125	0.218757777778	-1.39666635802
20.8	0.656845	0.135199166667	-1.73829012346
20.85	0.6614755	0.0380158333333	-1.90984305556
20.9	0.6607895	-0.0631691666667	-1.89438688272
20.95	0.6549585	-0.158923333333	-1.68747530864
21	0.6443255	-0.239623611111	-1.29371342593
21.05	0.6299195	-0.294217777778	-0.757352469136
21.1	0.613627	-0.317465555556	-0.160807716049
21.15	0.5969915	-0.310129166667	0.435260648148
21.2	0.581385	-0.272208611111	0.98570154321
21.25	0.568694	-0.207419722222	1.4365242284
21.3	0.5599475	-0.123861111111	1.76337993827
21.35	0.55566	-0.0251533333333	1.93186280864
21.4	0.5572035	0.0782230555556	1.88602361111
21.45	0.563892	0.172262222222	1.62771496914
21.5	0.575211	0.247341111111	1.20542268519
21.55	0.589617	0.297076111111	0.671496604938
21.6	0.606081	0.317275	0.0726757716049
21.65	0.6227165	0.304126666667	-0.521857561728
21.7	0.637637	0.261918611111	-1.04583240741
21.75	0.6498135	0.195891111111	-1.4746882716
21.8	0.6580455	0.10976	-1.77745987654
21.85	0.661304	0.0112427777778	-1.90693179012
21.9	0.659246	-0.0890847222222	-1.8352617284
21.95	0.652043	-0.180456111111	-1.56345540123
