Vernier Format 2
Y-M1-T1.cmbl 10/2/17 3:38 PM .
Latest
Time	Position	Velocity	Acceleration
t	x	v	acc
s	m	m/s	m/s²

0	0.760774	0.30527	-2.70125203704
0.05	0.779296	0.1946525	-3.33340421296
0.1	0.7890715	0.00863216666667	-4.04616138889
0.15	0.7839265	-0.240385833333	-4.16577734568
0.2	0.762832	-0.459905833333	-3.22884743827
0.25	0.7338485	-0.588245	-1.65225429012
0.3	0.7005775	-0.627594722222	0.0768574074074
0.35	0.6676495	-0.577859722222	1.74141311728
0.4	0.639352	-0.443803888889	3.1382912037
0.45	0.620487	-0.243815833333	4.04671188272
0.5	0.6137985	-0.0127672222222	4.33323333333
0.55	0.619801	0.209801666667	4.07529521605
0.6	0.635236	0.4141725	3.29549953704
0.65	0.6631905	0.565473611111	1.92561682099
0.7	0.695947	0.621401666667	0.209399382716
0.75	0.7290465	0.584529166667	-1.50877654321
0.8	0.7575155	0.464098055556	-3.04465432099
0.85	0.7787815	0.265443888889	-4.16617962963
0.9	0.786499	0.0141963888889	-4.51838981481
0.95	0.779296	-0.221520833333	-4.06915509259
1	0.762146	-0.410456666667	-3.12722839506
1.05	0.736078	-0.542225833333	-1.89544552469
1.1	0.7060655	-0.615494444444	-0.322938734568
1.15	0.670222	-0.588149722222	1.48633333333
1.2	0.642439	-0.452378888889	2.99235740741
1.25	0.623231	-0.263728888889	3.93428410494
1.3	0.614656	-0.0385875	4.3304279321
1.35	0.6189435	0.193509166667	4.11562947531
1.4	0.635236	0.397117777778	3.30523904321
1.45	0.660961	0.542988055556	2.00819089506
1.5	0.6923455	0.614255833333	0.341412037037
1.55	0.726817	0.581861388889	-1.41259891975
1.6	0.7544285	0.456856944444	-2.8296441358
1.65	0.7743225	0.278973333333	-3.78199845679
1.7	0.783755	0.0630738888889	-4.2876587963
1.75	0.7815255	-0.170833055556	-4.22376975309
1.8	0.7664335	-0.391210555556	-3.41851373457
1.85	0.739508	-0.543464444444	-1.94324320988
1.9	0.707266	-0.590055277778	-0.298748765432
1.95	0.677768	-0.561281388889	1.16360632716
2	0.649299	-0.473816388889	2.5596375
2.05	0.6264895	-0.300410833333	3.7515095679
2.1	0.6168855	-0.07203	4.33302160494
2.15	0.6192865	0.161972222222	4.20852530864
2.2	0.6336925	0.376823611111	3.38918935185
2.25	0.6597605	0.52479	2.00056867284
2.3	0.689773	0.586244166667	0.361473302469
2.35	0.7218435	0.5599475	-1.2689941358
2.4	0.749112	0.450282777778	-2.66830709877
2.45	0.7695205	0.275829166667	-3.64066975309
2.5	0.778267	0.0631691666667	-4.06507932099
2.55	0.7756945	-0.151872777778	-3.94751712963
2.6	0.7623175	-0.347478055556	-3.35769475309
2.65	0.7403655	-0.514595277778	-2.14756111111
2.7	0.7067515	-0.588149722222	-0.402495679012
2.75	0.6765675	-0.549562222222	1.28090385802
2.8	0.6494705	-0.4433275	2.61675123457
2.85	0.629748	-0.274114166667	3.57630432099
2.9	0.620487	-0.0666944444444	4.03755462963
2.95	0.622545	0.152158611111	3.93248441358
3	0.636265	0.354338055556	3.17730216049
3.05	0.660961	0.488584444444	1.96748611111
3.1	0.687715	0.557756111111	0.556263425926
3.15	0.7201285	0.543845555556	-0.892488117284
3.2	0.7441385	0.468957222222	-2.32843009259
3.25	0.770378	0.312225277778	-3.67639891975
3.3	0.7791245	0.0761269444444	-4.40257438272
3.35	0.77861	-0.173119722222	-4.14209552469
3.4	0.759402	-0.373393611111	-3.07302592593
3.45	0.7372785	-0.485630833333	-1.76581481481
3.5	0.709324	-0.547561388889	-0.43901882716
3.55	0.6796545	-0.535556388889	0.98014367284
3.6	0.6525575	-0.447519722222	2.32027854938
3.65	0.632149	-0.291645277778	3.37690910494
3.7	0.6216875	-0.0914666666667	3.97250108025
3.75	0.622202	0.127386388889	4.00320169753
3.8	0.63455	0.337569166667	3.352825
3.85	0.65856	0.488393888889	2.10304521605
3.9	0.6868575	0.556803333333	0.591516203704
3.95	0.7170415	0.549562222222	-0.97453287037
4	0.7455105	0.454379722222	-2.39443641975
4.05	0.765233	0.291168888889	-3.3657404321
4.1	0.775866	0.0968975	-3.83567160494
4.15	0.7756945	-0.116334166667	-3.75193302469
4.2	0.761803	-0.286500277778	-3.34186805556
4.25	0.748426	-0.464479166667	-2.51951496914
4.3	0.713097	-0.581575555556	-0.860305401235
4.35	0.683256	-0.555469444444	0.934939660494
4.4	0.655473	-0.465146111111	2.31726141975
4.45	0.6343785	-0.310033888889	3.32678240741
4.5	0.6227165	-0.114809722222	3.86097314815
4.55	0.622202	0.0973738888889	3.86388441358
4.6	0.6330065	0.295075277778	3.29205895062
4.65	0.6535865	0.446948055556	2.22367746914
4.7	0.680512	0.529935	0.838444444444
4.75	0.709667	0.535270555556	-0.661280709877
4.8	0.7372785	0.460382222222	-2.06980385802
4.85	0.7585445	0.315750555556	-3.1685683642
4.9	0.770721	0.1243375	-3.79332592593
4.95	0.77175	-0.0862263888889	-3.85255694444
5	0.7616315	-0.284594722222	-3.32524737654
5.05	0.741566	-0.439992777778	-2.27978549383
5.1	0.714812	-0.526600277778	-0.888835802469
5.15	0.685657	-0.532983888889	0.6131125
5.2	0.6583885	-0.460953888889	2.01057283951
5.25	0.6367795	-0.320133333333	3.11441882716
5.3	0.6244315	-0.131388055556	3.77506435185
5.35	0.622888	0.0777466666667	3.92465046296
5.4	0.632492	0.281069444444	3.53872253086
5.45	0.6518715	0.455141944444	2.57345277778
5.5	0.680512	0.565473611111	1.03011157407
5.55	0.7136115	0.562424722222	-0.647677160494
5.6	0.7393365	0.487155277778	-2.08065493827
5.65	0.764547	0.348145	-3.28533657407
5.7	0.7774095	0.141106388889	-4.02061635802
5.75	0.779639	-0.0884177777778	-4.00584830247
5.8	0.7664335	-0.281164722222	-3.42798858025
5.85	0.750484	-0.440659722222	-2.50548796296
5.9	0.7211575	-0.5565175	-1.05975354938
5.95	0.6896015	-0.559185277778	0.632697376543
6	0.6618185	-0.478294444444	2.0493720679
6.05	0.639695	-0.337855	3.0826595679
6.1	0.626318	-0.154731111111	3.69619552469
6.15	0.623231	0.0508783333333	3.81915679012
6.2	0.6316345	0.250008888889	3.38474305556
6.25	0.6498135	0.410456666667	2.4351412037
6.3	0.6751955	0.508592777778	1.11316203704
6.35	0.703836	0.528505833333	-0.375447376543
6.4	0.731276	0.468385555556	-1.79762700617
6.45	0.753571	0.3369975	-2.93180308642
6.5	0.766948	0.156446111111	-3.60721666667
6.55	0.770035	-0.0452569444444	-3.74632222222
6.6	0.762146	-0.239909444444	-3.3398566358
6.65	0.744653	-0.399309166667	-2.43794660494
6.7	0.7197855	-0.498874444444	-1.16567067901
6.75	0.6916595	-0.522312777778	0.273076697531
6.8	0.6645625	-0.470005277778	1.67366003086
6.85	0.641753	-0.346144166667	2.84499444444
6.9	0.62769	-0.167688888889	3.58159753086
6.95	0.6240885	0.0342047222222	3.77591126543
7	0.6312915	0.231715555556	3.42528904321
7.05	0.648613	0.396260277778	2.5808632716
7.1	0.6731375	0.504781666667	1.35453240741
7.15	0.701778	0.543464444444	-0.134923919753
7.2	0.731276	0.492490833333	-1.63221419753
7.25	0.754257	0.365199722222	-2.80794197531
7.3	0.769349	0.192651666667	-3.54052222222
7.35	0.774151	-0.000952777777778	-3.88759799383
7.4	0.770721	-0.217709722222	-3.67751049383
7.45	0.75117	-0.403501388889	-2.71340524691
7.5	0.726474	-0.505829722222	-1.32848981481
7.55	0.6978335	-0.5359375	0.127513425926
7.6	0.670222	-0.493443611111	1.5694367284
7.65	0.645183	-0.373107777778	2.82069861111
7.7	0.6302625	-0.190841388889	3.59038425926
7.75	0.6254605	0.0110522222222	3.76225478395
7.8	0.6316345	0.207038611111	3.38516651235
7.85	0.647584	0.3678675	2.54164058642
7.9	0.670565	0.474769166667	1.35522052469
7.95	0.6978335	0.512022777778	-0.0377405864197
8	0.7249305	0.471625	-1.43943549383
8.05	0.7479115	0.3592925	-2.62691419753
8.1	0.7630035	0.193128055556	-3.42068395062
8.15	0.7684915	-0.00362055555556	-3.69471342593
8.2	0.7626605	-0.200273888889	-3.38548410494
8.25	0.747054	-0.363294166667	-2.55677916667
8.3	0.724073	-0.470481666667	-1.36151944444
8.35	0.6971475	-0.506687222222	0.0173617283951
8.4	0.6703935	-0.468004444444	1.37925169753
8.45	0.647584	-0.360626388889	2.53782947531
8.5	0.632149	-0.199321111111	3.32784104938
8.55	0.6264895	-0.00867027777778	3.64178132716
8.6	0.63112	0.185410555556	3.44524444444
8.65	0.6460405	0.355576666667	2.7524691358
8.7	0.6686785	0.476007777778	1.65190493827
8.75	0.6957755	0.536604444444	0.193043364198
8.8	0.7263025	0.503924166667	-1.41408101852
8.85	0.750141	0.379967777778	-2.67794074074
8.9	0.7660905	0.208467777778	-3.31905432099
8.95	0.7715785	0.0225808333333	-3.38199058642
9	0.7671195	-0.143107222222	-3.11574212963
9.05	0.755629	-0.280116666667	-2.86442052469
9.1	0.741223	-0.439230555556	-2.29296558642
9.15	0.710696	-0.560995555556	-0.735597376543
9.2	0.6775965	-0.53165	1.21267438272
9.25	0.6539295	-0.411218888889	2.65486234568
9.3	0.6350645	-0.242100833333	3.52051388889
9.35	0.628033	-0.0366819444444	3.78845617284
9.4	0.631806	0.160638333333	3.47176342593
9.45	0.6453545	0.328231944444	2.69842546296
9.5	0.6666205	0.444566111111	1.57107762346
9.55	0.692517	0.493729444444	0.247986882716
9.6	0.7190995	0.468480833333	-1.06726990741
9.65	0.741909	0.378252777778	-2.19647037037
9.7	0.7585445	0.241719722222	-3.11007839506
9.75	0.76832	0.0549752777778	-3.66559018519
9.8	0.7650615	-0.151968055556	-3.58640905864
9.85	0.7520275	-0.3335675	-2.8501129784
9.9	0.7290465	-0.450930666667	-1.85405791667
9.95	0.703493	-0.502447361111	-1.11106063272
10	0.676739	-0.525552222222	-0.693103487654
